#  pressure     selectivity       loading (C4H10)     loading (C2H6)
0.001	30.8211234124	0.01339335	0.000434551
0.00106985307994	30.8211234124	0.0143289167483	0.000464905725743
0.00114458561267	30.8211234124	0.0153298357154	0.000497380822569
0.00122453844297	30.8211234124	0.0164006719551	0.000532124404931
0.00131007622472	30.8211234124	0.0175463094044	0.000569294933529
0.00140158908398	30.8211234124	0.0187719731579	0.000609061938032
0.00149949439831	30.8211234124	0.0200832532996	0.00065160679028
0.00160423870039	30.8211234124	0.0214861303979	0.000697123531494
0.00171629971458	30.8211234124	0.0229870027823	0.00074581975727
0.00183618853575	30.8211234124	0.0245927157253	0.000797917564398
0.00196445196033	30.8211234124	0.0263105926629	0.000853654563813
0.00210167498016	30.8211234124	0.0281484685955	0.000913284964303
0.00224848345056	30.8211234124	0.0301147258226	0.000977080731926
0.00240554694479	30.8211234124	0.032218332173	0.00104533283041
0.00257358180783	30.8211234124	0.0344688819059	0.00111835254818
0.0027533544236	30.8211234124	0.0368766394693	0.00119647291813
0.00294568471026	30.8211234124	0.0394525863142	0.00128005023653
0.00315144985982	30.8211234124	0.04220847098	0.00136946568803
0.00337158833882	30.8211234124	0.0451568626777	0.00146512708422
0.00360710416858	30.8211234124	0.0483112086163	0.00156747072356
0.00385907150444	30.8211234124	0.051685895334	0.00167696338133
0.00412863953475	30.8211234124	0.0552963143127	0.00179410443846
0.00441703772223	30.8211234124	0.059158932177	0.00191942815923
0.00472558141135	30.8211234124	0.0632913657958	0.00205350612789
0.00505567782746	30.8211234124	0.0677124626304	0.0021969498556
0.00540883249491	30.7858713213	0.0725423654493	0.00235635251938
0.00578665610359	30.6454624756	0.0777215505941	0.00253615198844
0.006190871855	30.424113108	0.083243259	0.00273609484373
0.00662332332161	30.1474026767	0.0890923733232	0.00295522550578
0.00708598285508	29.9017284442	0.0952359422516	0.00318496445546
0.00758096058194	29.7112353503	0.10180473494	0.00342647263704
0.00811051402752	29.5726360667	0.108829328267	0.00368006856142
0.00867705841227	29.4804352676	0.11635422581	0.00394682862563
0.00928317766723	29.4258720606	0.124408672827	0.00422786697948
0.00993163621895	29.4057358271	0.133026429062	0.00452382589042
0.0106253915977	29.4170191184	0.142251205075	0.00483567707872
0.0113676079264	29.452216307	0.152136619901	0.00516554062739
0.0121616703517	29.5067737202	0.162715261229	0.00551450533944
0.013011200483	29.5785876327	0.174035940578	0.0058838489092
0.0139200729105	29.6652281622	0.186153840609	0.00627515283521
0.0148924328764	29.764199783	0.199122206828	0.00668999026615
0.0159327151806	29.8738419427	0.213000244609	0.0071299916836
0.0170456644079	29.9946335989	0.227830676542	0.00759571460644
0.0182363565665	30.1308534174	0.243692688178	0.00808781234311
0.0195102222396	30.2808818943	0.260668713506	0.00860835937396
0.0208730713534	30.4337925917	0.2789916352	0.00916716621365
0.0223311196753	30.5374247455	0.298731906914	0.00978248524239
0.0238910171632	30.591884227	0.31982011179	0.0104544103729
0.0255598782951	30.5866597208	0.343674203425	0.0112360815651
0.027345314517	29.9112944525	0.371639849723	0.0124247330824
0.029255468958	28.8879901574	0.399195030043	0.0138187194009
0.03129905357	27.7565333397	0.428186783712	0.0154265224145
0.0334853888612	26.5927516165	0.459041781136	0.017261913613
0.0358244464062	25.431319478	0.49200158367	0.0193462861451
0.038326894325	24.4209187712	1.03812732868	0.0425097572455
0.0410041459383	24.2780221459	2.17384776876	0.089539739098
0.0438684118225	24.9477591634	3.33732393323	0.133772492807
0.0469327555006	26.2380278159	4.56219923448	0.173877368622
0.0502111530226	28.0745552112	5.11522337376	0.182201403915
0.0537185567087	29.9353233346	5.16935145266	0.172684002604
0.057470963345	31.7501638871	5.2176541398	0.164334715195
0.0614854871419	33.5612148009	5.25737701613	0.156650378937
0.0657804377907	35.4771105413	5.28823275909	0.149060413275
0.0703754039704	37.5185194006	5.31820794407	0.14174887573
0.07529134269	39.6952487566	5.34883831448	0.1347475701
0.08055067487	42.018239098	5.38022801965	0.128045061743
0.0861773876013	44.4996496622	5.41268531657	0.121634335498
0.0921971435467	47.1529500141	5.44615060522	0.115499679312
0.0986373979855	49.9929487462	5.48074011309	0.109630262878
0.105527524032	53.033692534	5.51084175046	0.10391208847
0.112898946605	56.2847931515	5.53906334529	0.0984113653998
0.120785285748	59.76312504	5.56810090169	0.0931695070826
0.129222509969	63.4879050606	5.59825723011	0.0881783266398
0.138249100289	67.4808159547	5.62970122351	0.0834266916288
0.147906225743	71.7655674835	5.66234235134	0.0789005445075
0.158237931154	76.3684075653	5.696253426	0.0745891345336
0.169291338009	81.3131172543	5.72589237468	0.0704178190189
0.181116859377	86.6251154887	5.75668984552	0.0664552054336
0.193768429834	92.33750151	5.78877152244	0.0626914463546
0.207303751454	98.4892609591	5.82466968564	0.0591401501943
0.221784556977	105.126774427	5.86289491591	0.0557697593963
0.237276891366	112.298128043	5.90306476963	0.0525660122079
0.253851413027	120.06127595	5.95336091733	0.0495860207234
0.271583716076	128.525573551	6.02077236707	0.0468449367759
0.290554675106	137.789078009	6.09238772517	0.0442153167234
0.310850814054	147.953640989	6.17961662589	0.0417672494206
0.332564700819	159.530812961	6.46059175814	0.0404974539916
0.355795369452	173.132574492	6.76149494707	0.0390538578133
0.380648771838	189.201925237	7.08375368299	0.0374401775992
0.407238260928	208.114459518	7.30168101939	0.0350849289198
0.435685107724	229.74722565	7.45929733982	0.032467409862
0.466119054385	254.533050614	7.62745029805	0.0299664435705
0.498678905954	283.050757032	7.78053413038	0.0274881233739
0.533513163438	315.421855037	7.84162602666	0.0248607567974
0.570780701095	351.957402578	7.90600865166	0.0224629702167
0.610651491039	393.274831867	7.97399372381	0.0202758810828
0.65330737846	440.015188725	8.02258016355	0.0182325073523
0.698942910996	492.7410602	8.0645920712	0.0163667953061
0.747766226034	552.281855396	8.10875320314	0.0146822734151
0.8	619.587978808	8.14662345871	0.0131484530645
